FFT	AudioTools 	v17.11 (10) iPad battery  97%	2024/08/14 19:16	Headset Microphone 1 Low Range	EB05A3E2-10AC-49FE-A287-06AC06EBE5AD
Frequency	dB	Unweighted
19.5	71.6
19.8	71.6
20.1	71.7
20.3	71.8
20.6	71.9
20.9	72.1
21.2	72.2
21.6	72.4
21.9	72.6
22.2	72.8
22.5	72.9
22.8	73.1
23.2	73.2
23.5	73.3
23.8	73.5
24.2	73.5
24.5	73.6
24.9	73.7
25.3	73.8
25.6	73.9
26	74
26.4	74
26.8	74
27.2	73.9
27.5	73.8
28	73.7
28.4	73.6
28.8	73.5
29.2	73.4
29.6	73.4
30	73.4
30.5	73.4
30.9	73.5
31.4	73.5
31.8	73.6
32.3	73.7
32.8	73.7
33.2	73.9
33.7	74
34.2	74.1
34.7	74.2
35.2	74.3
35.7	74.4
36.2	74.5
36.8	74.5
37.3	74.4
37.9	74.3
38.4	74.1
39	74
39.5	73.9
40.1	73.9
40.7	73.9
41.3	73.8
41.9	73.8
42.5	73.8
43.1	73.8
43.7	73.9
44.4	74
45	74.2
45.7	74.3
46.3	74.4
47	74.5
47.7	74.4
48.4	74.3
49.1	74.2
49.8	74
50.5	74
51.3	74
52	74
52.8	74
53.5	74
54.3	73.9
55.1	73.6
55.9	73.3
56.7	73.1
57.5	73.1
58.4	73.1
59.2	73
60.1	73
61	73.1
61.8	73.3
62.7	73.3
63.7	73.2
64.6	73.1
65.5	73
66.5	73
67.4	73
68.4	73
69.4	73
70.4	73
71.5	73.1
72.5	73
73.5	72.8
74.6	72.4
75.7	72.2
76.8	71.9
77.9	71.8
79.1	71.8
80.2	71.8
81.4	71.8
82.6	71.7
83.8	71.6
85	71.5
86.2	71.5
87.5	71.5
88.7	71.6
90	71.6
91.3	71.5
92.7	71.3
94	71
95.4	70.7
96.8	70.6
98.2	70.6
99.6	70.6
101	70.5
103	70.5
104	70.5
106	70.5
107	70.5
109	70.6
110	70.7
112	70.8
113	70.7
115	70.6
117	70.3
118	70
120	69.7
122	69.6
124	69.6
125	69.6
127	69.7
129	69.6
131	69.4
133	69.4
135	69.5
137	69.4
139	69.2
141	69.3
143	69.2
145	68.9
147	69
149	69.1
151	68.8
154	68.7
156	68.6
158	68.7
160	68.7
163	68.7
165	68.7
168	68.8
170	68.9
172	68.9
175	68.9
177	68.7
180	68.4
183	68.3
185	68.2
188	68.2
191	68.2
194	68.4
196	68.5
199	68.1
202	67.7
205	67.7
208	68
211	68.1
214	67.7
217	67.4
220	67.3
224	67.4
227	67.5
230	67.3
234	67.3
237	67.4
240	67.4
244	67.3
247	67.2
251	67.1
255	67
258	67
262	67
266	67.1
270	67.2
274	67.3
278	67.3
282	67.2
286	67
290	66.9
294	67
298	66.9
303	66.9
307	66.8
312	66.7
316	66.7
321	66.5
325	66.4
330	66.5
335	66.6
340	66.6
345	66.5
350	66.4
355	66.3
360	66.4
365	66.6
371	66.4
376	66.3
382	66.1
387	66
393	65.9
398	65.9
404	66
410	66
416	65.9
422	66
428	65.9
434	65.7
441	65.7
447	65.8
454	65.8
460	65.8
467	65.8
474	65.7
481	65.7
488	65.7
495	65.8
502	65.7
509	65.6
517	65.7
524	65.6
532	65.4
540	65.5
547	65.5
555	65.5
563	65.6
572	65.6
580	65.6
588	65.6
597	65.6
606	65.5
614	65.5
623	65.5
632	65.5
642	65.5
651	65.5
660	65.4
670	65.3
680	65.2
690	65.2
700	65.2
710	65.3
720	65.5
731	65.6
741	65.5
752	65.4
763	65.5
774	65.4
785	65.4
797	65.4
808	65.5
820	65.5
832	65.5
844	65.5
856	65.4
869	65.3
882	65.2
894	65.2
907	65.4
921	65.5
934	65.6
948	65.7
961	65.7
975	65.7
990	65.7
1004	65.7
1019	65.9
1033	66
1048	66.1
1064	66.1
1079	66.2
1095	66.3
1111	66.5
1127	66.6
1143	66.8
1160	66.9
1177	67.1
1194	67.2
1211	67.4
1229	67.5
1247	67.5
1265	67.6
1283	67.7
1302	67.8
1321	67.9
1340	68.1
1360	68.1
1379	68.1
1399	68.3
1420	68.5
1440	68.6
1461	68.7
1483	68.8
1504	68.9
1526	69
1548	69.1
1571	69.2
1594	69.2
1617	69.3
1640	69.3
1664	69.3
1688	69.3
1713	69.4
1738	69.5
1763	69.6
1789	69.7
1815	69.8
1841	69.9
1868	69.9
1895	69.9
1923	70
1951	70.2
1979	70.2
2008	70.3
2037	70.4
2067	70.4
2097	70.4
2127	70.6
2158	70.8
2190	70.9
2221	71.1
2254	71.1
2287	71.2
2320	71.2
2354	71.3
2388	71.4
2423	71.4
2458	71.5
2494	71.6
2530	71.8
2567	72
2604	72.2
2642	72.4
2680	72.6
2719	72.7
2759	72.9
2799	73.1
2840	73.2
2881	73.3
2923	73.5
2965	73.5
3008	73.6
3052	73.6
3097	73.8
3142	73.8
3187	73.8
3234	73.8
3281	73.9
3328	74
3377	74
3426	74
3476	73.9
3526	73.8
3578	73.6
3630	73.5
3682	73.4
3736	73.3
3790	73.1
3846	72.9
3901	72.7
3958	72.5
4016	72.3
4074	72.1
4133	71.8
4194	71.6
4255	71.3
4316	71.1
4379	70.9
4443	70.7
4508	70.5
4573	70.3
4640	70.1
4707	70
4776	69.8
4845	69.7
4916	69.6
4987	69.5
5060	69.5
5133	69.4
5208	69.2
5284	69.1
5360	69
5438	68.9
5518	68.8
5598	68.8
5679	68.7
5762	68.6
5846	68.6
5931	68.5
6017	68.6
6104	68.6
6193	68.6
6283	68.5
6375	68.5
6467	68.5
6561	68.6
6657	68.6
6754	68.7
6852	68.9
6952	69
7053	69.2
7155	69.3
7259	69.5
7365	69.7
7472	70
7581	70.3
7691	70.6
7803	71
7916	71.5
8032	71.8
8148	71.8
8267	71.7
8387	71.2
8509	70.5
8633	69.6
8758	68.9
8886	68.2
9015	67.6
9146	67.1
9279	66.7
9414	66.3
9551	66.1
9690	66
9831	65.8
9974	65.6
10119	65.5
10266	65.4
10416	65.3
10567	65.2
10721	65.2
10877	65.2
11035	65.2
11196	65.4
11358	65.6
11524	65.8
11691	66
11861	66.2
12034	66.5
12209	66.7
12386	67.1
12567	67.4
12749	67.8
12935	68.3
13123	68.6
13314	69
13507	69.2
13704	69.4
13903	69.4
14105	69.3
14311	69
14519	68.7
14730	68.5
14944	68.1
15162	67.7
15382	67
15606	66.4
15833	65.9
16063	65.5
16297	65
16534	64.6
16774	64.2
17018	63.9
17266	63.5
17517	63.1
17772	62.7
18030	62.2
18293	61.7
18559	61.2
18829	60.7
19102	60
19380	59.4
20000	58.9
overall dB	95.4 dB
decay	Average
averaging	1/12 Octave
source	Headset Microphone 1 Low Range
latitude	0
longitude	0
saved	2024/08/14 19:16
peak	26.4Hz
