FFT	AudioTools 	v17.9 (4) iPad battery  99%	2024/06/13 23:39	Headset Microphone 1 Low Range	EB05A3E2-10AC-49FE-A287-06AC06EBE5AD
Frequency	dB	Unweighted
19.5	57.4
19.8	57.6
20.1	57.8
20.3	58
20.6	58.1
20.9	58.3
21.2	58.5
21.6	58.6
21.9	58.7
22.2	58.8
22.5	58.8
22.8	58.9
23.2	58.9
23.5	58.9
23.8	59
24.2	59.1
24.5	59.2
24.9	59.3
25.3	59.4
25.6	59.5
26	59.6
26.4	59.7
26.8	59.8
27.2	59.9
27.5	60
28	60
28.4	60
28.8	60.1
29.2	60.1
29.6	60.1
30	60.2
30.5	60.2
30.9	60.3
31.4	60.3
31.8	60.2
32.3	60.2
32.8	60.3
33.2	60.4
33.7	60.5
34.2	60.7
34.7	60.8
35.2	61.1
35.7	61.3
36.2	61.6
36.8	61.9
37.3	62.2
37.9	62.4
38.4	62.6
39	62.6
39.5	62.6
40.1	62.5
40.7	62.4
41.3	62.4
41.9	62.5
42.5	62.6
43.1	62.7
43.7	62.8
44.4	62.8
45	62.8
45.7	62.8
46.3	62.9
47	63.1
47.7	63.2
48.4	63.2
49.1	63.1
49.8	62.9
50.5	62.8
51.3	62.7
52	62.7
52.8	62.7
53.5	62.8
54.3	62.9
55.1	62.9
55.9	62.8
56.7	62.6
57.5	62.4
58.4	62.3
59.2	62.3
60.1	62.5
61	62.7
61.8	62.9
62.7	63
63.7	63
64.6	63
65.5	62.9
66.5	62.9
67.4	62.8
68.4	62.8
69.4	62.8
70.4	62.7
71.5	62.6
72.5	62.8
73.5	62.9
74.6	63
75.7	63
76.8	63
77.9	63.1
79.1	63
80.2	63
81.4	63.2
82.6	63.3
83.8	63.3
85	63.3
86.2	63.1
87.5	62.8
88.7	62.7
90	62.8
91.3	62.9
92.7	62.8
94	62.6
95.4	62.5
96.8	62.6
98.2	62.7
99.6	62.6
101	62.3
103	61.8
104	61.5
106	61.2
107	61
109	60.8
110	60.7
112	60.6
113	60.4
115	60.1
117	59.9
118	59.8
120	59.9
122	59.9
124	59.9
125	59.8
127	59.6
129	59.2
131	58.7
133	58.4
135	58.3
137	58.3
139	58.1
141	57.9
143	57.7
145	57.5
147	57.2
149	57
151	56.7
154	56.3
156	56.2
158	56.1
160	56.1
163	55.9
165	55.7
168	55.5
170	55.3
172	55
175	54.8
177	54.7
180	54.5
183	54.2
185	54.1
188	54.2
191	54.3
194	54.2
196	54.1
199	53.9
202	53.8
205	53.8
208	53.6
211	53.3
214	53.3
217	53.3
220	53.2
224	53.3
227	53.4
230	53.4
234	53.3
237	53.4
240	53.2
244	53.1
247	53
251	53
255	53
258	53
262	53
266	53
270	52.9
274	52.9
278	52.9
282	53.1
286	53.3
290	53.4
294	53.6
298	53.7
303	53.5
307	53.3
312	53.2
316	53.1
321	53.2
325	53.4
330	53.6
335	53.6
340	53.5
345	53.6
350	53.6
355	53.5
360	53.5
365	53.6
371	53.6
376	53.5
382	53.3
387	53.2
393	53.1
398	53.2
404	53.3
410	53.5
416	53.6
422	53.8
428	53.8
434	53.7
441	53.6
447	53.4
454	53.5
460	53.5
467	53.7
474	53.7
481	53.6
488	53.5
495	53.4
502	53.5
509	53.4
517	53.3
524	53.3
532	53.3
540	53.3
547	53.3
555	53.3
563	53.3
572	53.4
580	53.3
588	53.3
597	53.2
606	53.1
614	53.1
623	53.2
632	53
642	52.9
651	53
660	53
670	52.9
680	52.7
690	52.7
700	52.7
710	52.7
720	52.7
731	52.7
741	52.7
752	52.7
763	52.6
774	52.7
785	52.7
797	52.7
808	52.7
820	52.7
832	52.7
844	52.6
856	52.4
869	52.4
882	52.5
894	52.6
907	52.6
921	52.6
934	52.7
948	52.8
961	52.8
975	52.8
990	52.8
1004	52.9
1019	52.9
1033	53
1048	53.2
1064	53.2
1079	53.2
1095	53.2
1111	53.3
1127	53.5
1143	53.5
1160	53.6
1177	53.8
1194	53.9
1211	54
1229	54
1247	54.2
1265	54.3
1283	54.4
1302	54.5
1321	54.5
1340	54.6
1360	54.7
1379	54.9
1399	54.9
1420	55
1440	55.1
1461	55.2
1483	55.3
1504	55.3
1526	55.3
1548	55.4
1571	55.7
1594	55.8
1617	55.8
1640	56
1664	56.1
1688	56.3
1713	56.4
1738	56.4
1763	56.5
1789	56.7
1815	56.9
1841	57
1868	57.2
1895	57.3
1923	57.5
1951	57.8
1979	58
2008	58.2
2037	58.4
2067	58.6
2097	58.8
2127	59.1
2158	59.4
2190	59.6
2221	59.8
2254	60.1
2287	60.4
2320	60.6
2354	60.8
2388	60.8
2423	60.9
2458	61
2494	61.1
2530	61.2
2567	61.2
2604	61.2
2642	61.3
2680	61.4
2719	61.3
2759	61.2
2799	61.2
2840	61.1
2881	61.1
2923	61.1
2965	61.1
3008	60.9
3052	60.8
3097	60.7
3142	60.6
3187	60.5
3234	60.4
3281	60.2
3328	60.1
3377	60
3426	60
3476	59.9
3526	59.8
3578	59.8
3630	59.8
3682	59.7
3736	59.6
3790	59.6
3846	59.5
3901	59.5
3958	59.4
4016	59.2
4074	59.2
4133	59.1
4194	59.1
4255	58.9
4316	58.9
4379	58.8
4443	58.7
4508	58.7
4573	58.6
4640	58.5
4707	58.3
4776	58.2
4845	58.1
4916	58.1
4987	58.3
5060	58.6
5133	58.9
5208	59.3
5284	59.7
5360	60
5438	60.3
5518	60.5
5598	60.7
5679	60.7
5762	60.7
5846	60.7
5931	60.5
6017	60.4
6104	60.2
6193	60
6283	59.8
6375	59.6
6467	59.3
6561	59
6657	58.8
6754	58.6
6852	58.5
6952	58.4
7053	58.3
7155	58.3
7259	58.3
7365	58.3
7472	58.4
7581	58.5
7691	58.8
7803	59
7916	59.2
8032	59.5
8148	59.6
8267	59.6
8387	59.4
8509	59
8633	58.5
8758	57.9
8886	57.2
9015	56.6
9146	56
9279	55.5
9414	55
9551	54.6
9690	54.2
9831	53.9
9974	53.6
10119	53.6
10266	53.6
10416	53.8
10567	54.1
10721	54.5
10877	55.1
11035	55.9
11196	56.7
11358	57.3
11524	56.9
11691	55.2
11861	53.7
12034	53.5
12209	53.4
12386	52.9
12567	51.9
12749	50.7
12935	49.6
13123	48.4
13314	47.3
13507	46.3
13704	45.8
13903	45.4
14105	45
14311	44.6
14519	44.4
14730	44.3
14944	44.5
15162	45
15382	45.9
15606	43.2
15833	34.7
16063	28.5
16297	25.3
16534	23.5
16774	22.7
17018	22.2
17266	22
17517	22
17772	22
18030	22
18293	22.1
18559	22.2
18829	22.1
19102	21.8
19380	21.2
20000	20.5
overall dB	82.7 dB
decay	Average
averaging	1/12 Octave
source	Headset Microphone 1 Low Range
latitude	0
longitude	0
saved	2024/06/13 23:39
peak	38.1Hz
