FFT	AudioTools 	v17.12 (3) iPad battery  73%	2024/08/27 20:46	Headset Microphone 1 Low Range	EB05A3E2-10AC-49FE-A287-06AC06EBE5AD
Frequency	dB	Unweighted
19.5	69.8
19.8	69.9
20.1	70.1
20.3	70.3
20.6	70.5
20.9	70.6
21.2	70.8
21.6	71
21.9	71.2
22.2	71.3
22.5	71.4
22.8	71.5
23.2	71.6
23.5	71.8
23.8	71.9
24.2	72
24.5	72.1
24.9	72.2
25.3	72.4
25.6	72.5
26	72.6
26.4	72.7
26.8	72.7
27.2	72.6
27.5	72.6
28	72.5
28.4	72.4
28.8	72.4
29.2	72.4
29.6	72.4
30	72.4
30.5	72.5
30.9	72.6
31.4	72.6
31.8	72.6
32.3	72.7
32.8	72.7
33.2	72.8
33.7	72.8
34.2	72.9
34.7	72.9
35.2	73
35.7	73
36.2	73
36.8	73
37.3	73
37.9	72.9
38.4	72.8
39	72.7
39.5	72.6
40.1	72.6
40.7	72.7
41.3	72.7
41.9	72.8
42.5	72.8
43.1	72.8
43.7	72.9
44.4	72.9
45	73
45.7	73
46.3	73
47	73
47.7	72.9
48.4	72.8
49.1	72.8
49.8	72.8
50.5	72.8
51.3	72.9
52	73
52.8	73.1
53.5	73.1
54.3	73
55.1	72.9
55.9	72.8
56.7	72.7
57.5	72.7
58.4	72.6
59.2	72.5
60.1	72.4
61	72.4
61.8	72.4
62.7	72.3
63.7	72.1
64.6	71.9
65.5	71.8
66.5	71.8
67.4	72
68.4	72.2
69.4	72.3
70.4	72.4
71.5	72.5
72.5	72.6
73.5	72.4
74.6	72.2
75.7	72
76.8	71.8
77.9	71.6
79.1	71.6
80.2	71.7
81.4	71.7
82.6	71.7
83.8	71.6
85	71.4
86.2	71.4
87.5	71.4
88.7	71.5
90	71.4
91.3	71.1
92.7	70.9
94	70.7
95.4	70.4
96.8	70.2
98.2	70.2
99.6	70.2
101	70.1
103	70.1
104	70.1
106	70.1
107	70.1
109	70.3
110	70.3
112	70.3
113	70
115	69.8
117	69.7
118	69.5
120	69.3
122	69.3
124	69.4
125	69.4
127	69.6
129	69.5
131	69.4
133	69.4
135	69.6
137	69.6
139	69.4
141	69.3
143	69.2
145	69.2
147	69.3
149	69.2
151	68.9
154	68.8
156	68.8
158	68.9
160	68.9
163	68.8
165	68.8
168	68.7
170	68.8
172	68.9
175	68.8
177	68.5
180	68.2
183	68.1
185	68
188	68
191	68.2
194	68.3
196	68.1
199	67.9
202	67.6
205	67.4
208	67.6
211	67.7
214	67.3
217	67.1
220	67.1
224	67.1
227	67.1
230	66.9
234	66.9
237	67.1
240	67
244	67.1
247	66.9
251	66.7
255	66.8
258	66.9
262	66.7
266	66.6
270	66.8
274	66.8
278	66.8
282	66.9
286	66.8
290	66.6
294	66.5
298	66.4
303	66.3
307	66.3
312	66.3
316	66.4
321	66.4
325	66.2
330	66.2
335	66.2
340	66.2
345	66.2
350	66.2
355	66.1
360	66.1
365	66
371	65.7
376	65.6
382	65.5
387	65.5
393	65.5
398	65.5
404	65.4
410	65.4
416	65.5
422	65.5
428	65.4
434	65.1
441	65.1
447	65.2
454	65.3
460	65.3
467	65.4
474	65.4
481	65.5
488	65.5
495	65.5
502	65.3
509	65.3
517	65.2
524	65.1
532	64.9
540	65
547	65.1
555	65
563	65.1
572	65.3
580	65.3
588	65.3
597	65.4
606	65.3
614	65.2
623	65.2
632	65.3
642	65.3
651	65.2
660	65.1
670	65
680	65
690	65.1
700	65.1
710	65.1
720	65.2
731	65.2
741	65.2
752	65.2
763	65.3
774	65.2
785	65.3
797	65.4
808	65.5
820	65.6
832	65.5
844	65.5
856	65.5
869	65.5
882	65.5
894	65.5
907	65.6
921	65.6
934	65.7
948	65.8
961	66
975	66.1
990	66.1
1004	66.2
1019	66.3
1033	66.4
1048	66.5
1064	66.5
1079	66.7
1095	66.9
1111	67.1
1127	67.3
1143	67.5
1160	67.6
1177	67.9
1194	68.1
1211	68.3
1229	68.4
1247	68.4
1265	68.5
1283	68.8
1302	69
1321	69.2
1340	69.3
1360	69.4
1379	69.5
1399	69.7
1420	69.8
1440	70
1461	70.2
1483	70.5
1504	70.7
1526	70.8
1548	70.9
1571	71.1
1594	71.2
1617	71.3
1640	71.4
1664	71.5
1688	71.6
1713	71.9
1738	72
1763	72.1
1789	72.3
1815	72.6
1841	72.8
1868	72.9
1895	72.9
1923	73
1951	73.1
1979	73.1
2008	73.1
2037	73.1
2067	73
2097	72.9
2127	73
2158	73
2190	72.9
2221	72.8
2254	72.6
2287	72.5
2320	72.4
2354	72.3
2388	72.2
2423	72
2458	71.8
2494	71.7
2530	71.7
2567	71.6
2604	71.5
2642	71.4
2680	71.3
2719	71.2
2759	71.1
2799	71
2840	70.9
2881	70.7
2923	70.5
2965	70.4
3008	70.3
3052	70.3
3097	70.3
3142	70.4
3187	70.3
3234	70.4
3281	70.4
3328	70.4
3377	70.5
3426	70.5
3476	70.4
3526	70.4
3578	70.3
3630	70.3
3682	70.3
3736	70.3
3790	70.2
3846	70.2
3901	70.3
3958	70.2
4016	70.2
4074	70.3
4133	70.2
4194	70.3
4255	70.5
4316	70.5
4379	70.6
4443	70.7
4508	70.8
4573	70.9
4640	70.9
4707	71
4776	71.2
4845	71.3
4916	71.5
4987	71.7
5060	72
5133	72.3
5208	72.5
5284	72.6
5360	72.7
5438	72.5
5518	72.4
5598	72.6
5679	72.9
5762	73.3
5846	73.7
5931	74
6017	74.2
6104	74.4
6193	74.5
6283	74.6
6375	74.6
6467	74.6
6561	74.5
6657	74.5
6754	74.4
6852	74.4
6952	74.5
7053	74.5
7155	74.6
7259	74.7
7365	74.8
7472	74.9
7581	74.9
7691	75
7803	75.1
7916	75.2
8032	75.1
8148	74.8
8267	74.4
8387	74
8509	73.5
8633	73.1
8758	72.9
8886	72.6
9015	72.4
9146	72.1
9279	71.7
9414	71.4
9551	71.2
9690	71
9831	70.9
9974	70.5
10119	70.1
10266	69.6
10416	69.1
10567	68.6
10721	68.2
10877	67.8
11035	67.6
11196	67.4
11358	67.2
11524	67.1
11691	67
11861	66.9
12034	66.9
12209	66.9
12386	66.8
12567	66.8
12749	66.6
12935	66.5
13123	66.5
13314	66.5
13507	66.6
13704	66.7
13903	66.8
14105	67
14311	67.3
14519	67.7
14730	68.3
14944	68.9
15162	69.3
15382	69.5
15606	68.6
15833	66.9
16063	65.7
16297	65
16534	64.5
16774	64.1
17018	63.8
17266	63.5
17517	63.1
17772	62.6
18030	62.1
18293	61.6
18559	61
18829	60.4
19102	59.8
19380	59.2
20000	58.9
overall dB	95.2 dB
decay	Average
averaging	1/12 Octave
source	Headset Microphone 1 Low Range
latitude	0
longitude	0
saved	2024/08/27 20:46
peak	26.4Hz
