FFT	AudioTools 	v17.4 (100) iPad battery 100%	2024/04/02 14:21	Headset Microphone 1 Low Range	EB05A3E2-10AC-49FE-A287-06AC06EBE5AD
Frequency	dB	Unweighted
19.5	72.2
19.8	72.4
20.1	72.5
20.3	72.7
20.6	72.9
20.9	73.1
21.2	73.3
21.6	73.5
21.9	73.7
22.2	73.8
22.5	73.9
22.8	74
23.2	74.1
23.5	74.2
23.8	74.3
24.2	74.3
24.5	74.3
24.9	74.3
25.3	74.4
25.6	74.4
26	74.5
26.4	74.5
26.8	74.5
27.2	74.5
27.5	74.5
28	74.4
28.4	74.4
28.8	74.4
29.2	74.5
29.6	74.5
30	74.5
30.5	74.6
30.9	74.6
31.4	74.7
31.8	74.7
32.3	74.8
32.8	74.9
33.2	74.9
33.7	74.9
34.2	74.8
34.7	74.8
35.2	74.7
35.7	74.7
36.2	74.7
36.8	74.7
37.3	74.6
37.9	74.6
38.4	74.5
39	74.5
39.5	74.5
40.1	74.5
40.7	74.5
41.3	74.4
41.9	74.4
42.5	74.3
43.1	74.3
43.7	74.4
44.4	74.4
45	74.3
45.7	74.3
46.3	74.2
47	74.2
47.7	74.2
48.4	74.2
49.1	74.1
49.8	74
50.5	74.1
51.3	74.1
52	74.1
52.8	74.1
53.5	74
54.3	73.9
55.1	73.8
55.9	73.8
56.7	73.8
57.5	73.9
58.4	74
59.2	73.9
60.1	73.7
61	73.5
61.8	73.3
62.7	73.1
63.7	72.8
64.6	72.7
65.5	72.6
66.5	72.7
67.4	73
68.4	73.1
69.4	73.2
70.4	73.2
71.5	73.2
72.5	73.2
73.5	73
74.6	72.7
75.7	72.4
76.8	72.3
77.9	72.2
79.1	72.1
80.2	72
81.4	72
82.6	71.9
83.8	71.9
85	71.7
86.2	71.5
87.5	71.3
88.7	71.2
90	71.2
91.3	71.2
92.7	71.1
94	71.1
95.4	71
96.8	70.9
98.2	70.8
99.6	70.7
101	70.6
103	70.5
104	70.3
106	70.2
107	70.2
109	70.2
110	70.2
112	70.2
113	70.2
115	70.2
117	70
118	69.8
120	69.6
122	69.7
124	69.8
125	69.7
127	69.6
129	69.6
131	69.6
133	69.7
135	69.6
137	69.4
139	69.1
141	69.1
143	69.1
145	69.1
147	69.2
149	69.1
151	68.8
154	68.6
156	68.4
158	68.3
160	68.3
163	68.3
165	68.2
168	68.1
170	68.1
172	68.3
175	68.3
177	68.1
180	67.9
183	67.7
185	67.7
188	67.8
191	67.9
194	67.9
196	67.9
199	67.7
202	67.4
205	67.2
208	67.5
211	67.6
214	67.4
217	67.2
220	67.2
224	67.4
227	67.5
230	67.3
234	67.2
237	67.2
240	67.1
244	67.1
247	66.9
251	66.7
255	66.7
258	66.9
262	66.8
266	66.8
270	67
274	67.1
278	67.1
282	67
286	66.8
290	66.7
294	66.7
298	66.7
303	66.6
307	66.6
312	66.6
316	66.6
321	66.5
325	66.4
330	66.5
335	66.6
340	66.6
345	66.7
350	66.7
355	66.6
360	66.6
365	66.5
371	66.4
376	66.4
382	66.4
387	66.4
393	66.4
398	66.3
404	66.3
410	66.3
416	66.3
422	66.3
428	66.2
434	66.2
441	66.3
447	66.3
454	66.3
460	66.4
467	66.5
474	66.5
481	66.5
488	66.5
495	66.5
502	66.6
509	66.5
517	66.4
524	66.3
532	66.4
540	66.6
547	66.5
555	66.4
563	66.4
572	66.4
580	66.4
588	66.4
597	66.4
606	66.3
614	66.2
623	66.2
632	66.3
642	66.3
651	66.2
660	66.2
670	66.2
680	66.1
690	66.1
700	66
710	66
720	66.1
731	66.1
741	66
752	66
763	66.1
774	66.1
785	66
797	66.1
808	66.2
820	66.2
832	66.2
844	66.1
856	66
869	66
882	66
894	66
907	66.2
921	66.2
934	66.2
948	66.2
961	66.2
975	66.2
990	66.2
1004	66.3
1019	66.4
1033	66.4
1048	66.4
1064	66.4
1079	66.5
1095	66.6
1111	66.6
1127	66.6
1143	66.7
1160	66.9
1177	67.1
1194	67.1
1211	67.2
1229	67.2
1247	67.1
1265	67.1
1283	67.2
1302	67.3
1321	67.3
1340	67.4
1360	67.4
1379	67.5
1399	67.6
1420	67.6
1440	67.6
1461	67.7
1483	67.7
1504	67.8
1526	67.9
1548	67.9
1571	68
1594	68
1617	68.1
1640	68.2
1664	68.2
1688	68.2
1713	68.3
1738	68.4
1763	68.5
1789	68.5
1815	68.7
1841	68.8
1868	68.8
1895	68.9
1923	69
1951	69.1
1979	69.2
2008	69.4
2037	69.5
2067	69.6
2097	69.7
2127	69.8
2158	69.9
2190	70.1
2221	70.3
2254	70.4
2287	70.6
2320	70.7
2354	70.7
2388	70.9
2423	71
2458	71
2494	71.1
2530	71.3
2567	71.5
2604	71.6
2642	71.8
2680	71.9
2719	72.1
2759	72.3
2799	72.5
2840	72.7
2881	72.7
2923	72.8
2965	72.9
3008	72.9
3052	73.1
3097	73.1
3142	73.2
3187	73.2
3234	73.2
3281	73.2
3328	73.2
3377	73.2
3426	73.2
3476	73.2
3526	73.2
3578	73.1
3630	73
3682	73
3736	72.9
3790	72.8
3846	72.7
3901	72.7
3958	72.7
4016	72.6
4074	72.6
4133	72.5
4194	72.4
4255	72.3
4316	72.2
4379	72.1
4443	72
4508	72
4573	71.9
4640	71.8
4707	71.8
4776	71.8
4845	71.7
4916	71.7
4987	71.7
5060	71.6
5133	71.6
5208	71.4
5284	71.3
5360	71.2
5438	71.2
5518	71.2
5598	71.1
5679	71.1
5762	71.2
5846	71.1
5931	71.2
6017	71.2
6104	71.1
6193	71.1
6283	71
6375	70.9
6467	70.8
6561	70.6
6657	70.6
6754	70.6
6852	70.7
6952	70.8
7053	71
7155	71.1
7259	71.3
7365	71.5
7472	71.6
7581	71.6
7691	71.7
7803	71.8
7916	71.8
8032	71.7
8148	71.7
8267	71.5
8387	71.3
8509	71
8633	70.8
8758	70.7
8886	70.6
9015	70.4
9146	70.1
9279	69.7
9414	69.4
9551	69.2
9690	69.1
9831	69
9974	68.8
10119	68.8
10266	68.8
10416	68.8
10567	68.8
10721	68.8
10877	68.8
11035	68.7
11196	68.6
11358	68.5
11524	68.3
11691	68.2
11861	68.1
12034	68
12209	67.9
12386	67.8
12567	67.7
12749	67.6
12935	67.6
13123	67.5
13314	67.5
13507	67.4
13704	67.4
13903	67.3
14105	67.3
14311	67.4
14519	67.5
14730	67.7
14944	67.9
15162	68.3
15382	69.2
15606	70.1
15833	71.1
16063	71.9
16297	72.1
16534	71.6
16774	70.6
17018	69.3
17266	68.2
17517	67.3
17772	66.7
18030	66.2
18293	65.9
18559	65.5
18829	65.1
19102	64.5
19380	63.7
20000	63.2
overall dB	96.1 dB
decay	Average
averaging	1/12 Octave
source	Headset Microphone 1 Low Range
latitude	0
longitude	0
saved	2024/04/02 14:21
peak	23.4Hz
